Time 		Total Energy 	PotentialE(V) 	KineticE 	Current Temp 
0.000000 	-1103.049194 	-1267.606323 	164.557129 	1.025278
0.001000 	-1063.966553 	-1268.496948 	204.530457 	1.274333
0.002000 	-945.268127 	-1270.353149 	325.085022 	2.025452
0.003000 	-745.539612 	-1273.184937 	527.645325 	3.287510
0.004000 	-462.343689 	-1277.013428 	814.669739 	5.075824
0.005000 	-92.209229 	-1281.872070 	1189.662842 	7.412230
0.006000 	369.354980 	-1287.805542 	1657.160522 	10.324987
0.007000 	927.776855 	-1294.864746 	2222.641602 	13.848234
0.008000 	1589.192505 	-1303.105347 	2892.297852 	18.020548
0.009000 	2359.922363 	-1312.574829 	3672.497314 	22.881603
0.010000 	3245.335693 	-1323.291260 	4568.626953 	28.464966
0.011000 	4247.655273 	-1335.206787 	5582.862305 	34.784187
0.012000 	5361.888672 	-1348.131226 	6710.020020 	41.806980
0.013000 	6568.916992 	-1361.624023 	7930.541016 	49.411472
0.014000 	7825.729492 	-1374.854614 	9200.583984 	57.324512
0.015000 	9058.166992 	-1386.616333 	10444.783203 	65.076530
0.016000 	10178.452148 	-1395.989258 	11574.441406 	72.114899
0.017000 	11158.057617 	-1404.153931 	12562.211914 	78.269234
0.018000 	12077.890625 	-1415.406616 	13493.296875 	84.070389
0.019000 	13020.492188 	-1432.747559 	14453.240234 	90.051338
0.020000 	13979.058594 	-1452.761719 	15431.820312 	96.148415
0.021000 	14882.713867 	-1469.678833 	16352.392578 	101.884064
0.022000 	15590.531250 	-1480.593872 	17071.125000 	106.362152
0.023000 	15901.890625 	-1484.885010 	17386.775391 	108.328819
0.024000 	15794.771484 	-1483.187012 	17277.958984 	107.650833
0.025000 	15690.620117 	-1478.534424 	17169.154297 	106.972923
0.026000 	16104.030273 	-1476.177124 	17580.207031 	109.533997
0.027000 	17031.750000 	-1479.916870 	18511.666016 	115.337486
0.028000 	18124.976562 	-1488.460083 	19613.437500 	122.202103
0.029000 	19032.904297 	-1497.018188 	20529.921875 	127.912285
0.030000 	19572.228516 	-1502.407349 	21074.636719 	131.306152
0.031000 	19935.652344 	-1506.376465 	21442.029297 	133.595200
0.032000 	20416.791016 	-1516.421387 	21933.212891 	136.655533
0.033000 	20949.523438 	-1538.888672 	22488.412109 	140.114716
0.034000 	21369.964844 	-1566.992798 	22936.957031 	142.909393
0.035000 	21526.630859 	-1583.841187 	23110.472656 	143.990479
0.036000 	21259.160156 	-1577.669922 	22836.830078 	142.285553
0.037000 	20731.388672 	-1555.266235 	22286.654297 	138.857666
0.038000 	20406.125000 	-1542.932617 	21949.058594 	136.754257
0.039000 	20394.273438 	-1558.444702 	21952.718750 	136.777069
0.040000 	20433.531250 	-1582.323730 	22015.855469 	137.170441
0.041000 	20468.119141 	-1577.452515 	22045.572266 	137.355591
0.042000 	20518.625000 	-1536.658081 	22055.283203 	137.416092
0.043000 	20434.296875 	-1517.440552 	21951.738281 	136.770950
0.044000 	20244.337891 	-1569.947998 	21814.285156 	135.914551
0.045000 	20335.039062 	-1640.618164 	21975.658203 	136.919983
0.046000 	20851.632812 	-1672.417969 	22524.050781 	140.336761
0.047000 	21222.843750 	-1662.707642 	22885.550781 	142.589096
0.048000 	20832.912109 	-1628.229004 	22461.140625 	139.944809
0.049000 	20111.617188 	-1567.523315 	21679.140625 	135.072525
0.050000 	20112.005859 	-1445.532349 	21557.539062 	134.314880
0.051000 	20263.554688 	-1309.317505 	21572.873047 	134.410431
0.052000 	19952.970703 	-1256.287598 	21209.257812 	132.144913
0.053000 	19381.164062 	-1227.304077 	20608.468750 	128.401672
0.054000 	19039.656250 	-1184.349365 	20224.005859 	126.006264
0.055000 	19287.738281 	-1221.739502 	20509.478516 	127.784912
0.056000 	19807.757812 	-1368.054199 	21175.812500 	131.936523
0.057000 	19976.287109 	-1501.544678 	21477.832031 	133.818268
0.058000 	19661.679688 	-1575.356812 	21237.037109 	132.317993
0.059000 	19504.615234 	-1617.812256 	21122.427734 	131.603912
0.060000 	19700.156250 	-1656.548950 	21356.705078 	133.063583
0.061000 	19877.753906 	-1694.540039 	21572.294922 	134.406815
0.062000 	19946.423828 	-1719.464355 	21665.888672 	134.989960
0.063000 	20190.726562 	-1728.312378 	21919.039062 	136.567215
0.064000 	20626.101562 	-1735.416382 	22361.517578 	139.324097
0.065000 	21075.761719 	-1749.739502 	22825.501953 	142.214966
0.066000 	21405.890625 	-1765.105469 	23170.996094 	144.367584
0.067000 	21420.339844 	-1774.213013 	23194.552734 	144.514343
0.068000 	21183.660156 	-1772.088867 	22955.748047 	143.026474
0.069000 	20939.097656 	-1756.961060 	22696.058594 	141.408463
0.070000 	20675.404297 	-1732.078613 	22407.482422 	139.610489
0.071000 	20324.175781 	-1705.178589 	22029.353516 	137.254532
0.072000 	19943.892578 	-1686.524658 	21630.417969 	134.768967
0.073000 	19773.671875 	-1685.484619 	21459.156250 	133.701904
0.074000 	20019.794922 	-1702.765503 	21722.560547 	135.343063
0.075000 	20452.865234 	-1728.418823 	22181.283203 	138.201141
0.076000 	20710.347656 	-1752.190308 	22462.537109 	139.953506
0.077000 	20657.859375 	-1770.087280 	22427.947266 	139.737991
0.078000 	20360.656250 	-1782.402222 	22143.058594 	137.962982
0.079000 	19877.144531 	-1790.558350 	21667.703125 	135.001266
0.080000 	19345.873047 	-1795.815918 	21141.689453 	131.723923
0.081000 	19096.976562 	-1799.238159 	20896.214844 	130.194489
0.082000 	19113.226562 	-1801.422241 	20914.648438 	130.309341
0.083000 	18921.859375 	-1801.827515 	20723.687500 	129.119553
0.084000 	18427.728516 	-1799.588623 	20227.316406 	126.026894
0.085000 	17987.910156 	-1794.775635 	19782.685547 	123.256607
0.086000 	17883.562500 	-1787.895508 	19671.458984 	122.563606
0.087000 	17985.218750 	-1775.982300 	19761.201172 	123.122749
0.088000 	18030.277344 	-1753.116943 	19783.394531 	123.261024
0.089000 	17880.138672 	-1717.472656 	19597.611328 	122.103500
0.090000 	17536.402344 	-1676.254639 	19212.656250 	119.705025
0.091000 	17150.210938 	-1647.067871 	18797.279297 	117.117004
0.092000 	16856.015625 	-1647.401123 	18503.416016 	115.286079
0.093000 	16704.480469 	-1676.575562 	18381.056641 	114.523720
0.094000 	16677.123047 	-1717.125610 	18394.248047 	114.605904
0.095000 	16765.925781 	-1754.257202 	18520.183594 	115.390549
0.096000 	16937.566406 	-1782.808716 	18720.375000 	116.637848
0.097000 	17054.750000 	-1802.217041 	18856.966797 	117.488892
0.098000 	16976.443359 	-1810.993286 	18787.437500 	117.055687
0.099000 	16733.585938 	-1803.565796 	18537.152344 	115.496277
0.100000 	16472.158203 	-1771.163452 	18243.322266 	113.665558
0.101000 	16229.276367 	-1714.536133 	17943.812500 	111.799454
0.102000 	16015.791992 	-1666.227661 	17682.019531 	110.168343
0.103000 	15878.074219 	-1668.023682 	17546.097656 	109.321480
0.104000 	15826.691406 	-1711.918335 	17538.609375 	109.274826
0.105000 	15898.566406 	-1761.774902 	17660.341797 	110.033279
0.106000 	16059.494141 	-1795.781006 	17855.275391 	111.247818
0.107000 	16176.780273 	-1811.114502 	17987.894531 	112.074112
0.108000 	16177.225586 	-1813.725952 	17990.951172 	112.093155
0.109000 	16089.958984 	-1810.304321 	17900.263672 	111.528122
0.110000 	15958.717773 	-1805.256958 	17763.974609 	110.678970
0.111000 	15803.602539 	-1799.926514 	17603.529297 	109.679314
0.112000 	15649.688477 	-1792.260498 	17441.949219 	108.672585
0.113000 	15518.342773 	-1777.079102 	17295.421875 	107.759636
0.114000 	15441.958008 	-1747.701782 	17189.660156 	107.100685
0.115000 	15458.458008 	-1701.366333 	17159.824219 	106.914795
0.116000 	15492.964844 	-1651.711426 	17144.675781 	106.820412
0.117000 	15477.205078 	-1632.751465 	17109.957031 	106.604095
0.118000 	15453.751953 	-1661.250000 	17115.001953 	106.635529
0.119000 	15453.085938 	-1709.439941 	17162.525391 	106.931625
0.120000 	15443.853516 	-1745.853760 	17189.707031 	107.100975
0.121000 	15311.898438 	-1762.539062 	17074.437500 	106.382790
0.122000 	14973.155273 	-1764.906982 	16738.062500 	104.286995
0.123000 	14581.142578 	-1760.671387 	16341.813477 	101.818153
0.124000 	14444.515625 	-1755.459473 	16199.974609 	100.934418
0.125000 	14704.550781 	-1750.500244 	16455.050781 	102.523682
0.126000 	15190.005859 	-1744.400391 	16934.406250 	105.510323
0.127000 	15572.714844 	-1736.786621 	17309.501953 	107.847366
0.128000 	15646.352539 	-1728.678711 	17375.031250 	108.255646
0.129000 	15467.654297 	-1720.720337 	17188.375000 	107.092682
0.130000 	15242.345703 	-1711.368774 	16953.714844 	105.630623
0.131000 	15094.460938 	-1697.748047 	16792.208984 	104.624352
0.132000 	14986.723633 	-1679.049561 	16665.773438 	103.836594
0.133000 	14852.596680 	-1659.471802 	16512.068359 	102.878929
0.134000 	14772.348633 	-1647.485352 	16419.833984 	102.304260
0.135000 	14944.688477 	-1649.438110 	16594.126953 	103.390198
0.136000 	15207.543945 	-1663.004517 	16870.548828 	105.112457
0.137000 	15151.305664 	-1680.247437 	16831.552734 	104.869484
0.138000 	14722.937500 	-1695.217285 	16418.154297 	102.293793
0.139000 	14299.803711 	-1705.965942 	16005.769531 	99.724419
0.140000 	14331.909180 	-1712.526611 	16044.435547 	99.965332
0.141000 	14770.607422 	-1714.998413 	16485.605469 	102.714050
0.142000 	15160.407227 	-1713.073364 	16873.480469 	105.130722
0.143000 	15217.337891 	-1707.129028 	16924.466797 	105.448395
0.144000 	14941.617188 	-1698.835449 	16640.453125 	103.678833
0.145000 	14497.924805 	-1689.536011 	16187.460938 	100.856453
0.146000 	14099.566406 	-1678.164185 	15777.730469 	98.303619
0.147000 	13843.814453 	-1663.422241 	15507.236328 	96.618294
0.148000 	13773.863281 	-1648.841309 	15422.704102 	96.091614
0.149000 	13904.541992 	-1640.972534 	15545.514648 	96.856789
0.150000 	14167.281250 	-1641.318604 	15808.599609 	98.495949
0.151000 	14425.005859 	-1643.086426 	16068.091797 	100.112724
0.152000 	14487.014648 	-1639.240479 	16126.254883 	100.475105
0.153000 	14309.781250 	-1630.450928 	15940.232422 	99.316093
0.154000 	14030.571289 	-1618.210205 	15648.781250 	97.500198
0.155000 	13814.017578 	-1589.660889 	15403.678711 	95.973076
0.156000 	13725.692383 	-1524.796997 	15250.489258 	95.018623
0.157000 	13784.399414 	-1456.960693 	15241.360352 	94.961746
0.158000 	13996.976562 	-1482.823608 	15479.799805 	96.447350
0.159000 	14256.032227 	-1578.383667 	15834.416016 	98.656799
0.160000 	14383.327148 	-1646.174927 	16029.501953 	99.872284
0.161000 	14316.088867 	-1667.370361 	15983.458984 	99.585411
0.162000 	14233.972656 	-1659.824463 	15893.796875 	99.026772
0.163000 	14350.990234 	-1639.244019 	15990.234375 	99.627632
0.164000 	14624.783203 	-1619.012695 	16243.795898 	101.207451
0.165000 	14861.663086 	-1606.551880 	16468.214844 	102.605698
0.166000 	14848.977539 	-1599.503296 	16448.480469 	102.482742
0.167000 	14572.865234 	-1598.255737 	16171.121094 	100.754646
0.168000 	14175.925781 	-1603.549805 	15779.475586 	98.314491
0.169000 	13740.720703 	-1611.782227 	15352.502930 	95.654221
0.170000 	13375.977539 	-1619.097290 	14995.075195 	93.427261
0.171000 	13341.993164 	-1624.815552 	14966.808594 	93.251144
0.172000 	13611.409180 	-1630.345703 	15241.754883 	94.964203
0.173000 	13886.166016 	-1634.550659 	15520.716797 	96.702286
0.174000 	13950.832031 	-1631.167725 	15582.000000 	97.084114
0.175000 	13726.244141 	-1612.843018 	15339.086914 	95.570633
0.176000 	13317.585938 	-1577.593262 	14895.179688 	92.804855
0.177000 	12930.224609 	-1537.110352 	14467.334961 	90.139160
0.178000 	12674.684570 	-1519.487671 	14194.171875 	88.437210
0.179000 	12581.221680 	-1543.820679 	14125.041992 	88.006493
0.180000 	12718.643555 	-1592.413940 	14311.057617 	89.165466
0.181000 	13045.050781 	-1634.836914 	14679.887695 	91.463478
0.182000 	13372.829102 	-1657.956421 	15030.785156 	93.649750
0.183000 	13569.448242 	-1663.560425 	15233.008789 	94.909714
0.184000 	13612.037109 	-1658.322144 	15270.359375 	95.142426
0.185000 	13564.152344 	-1649.942505 	15214.094727 	94.791870
0.186000 	13503.146484 	-1645.786865 	15148.933594 	94.385880
0.187000 	13431.947266 	-1649.799316 	15081.746094 	93.967262
0.188000 	13347.877930 	-1660.194092 	15008.072266 	93.508240
0.189000 	13315.658203 	-1671.934570 	14987.592773 	93.380638
0.190000 	13350.153320 	-1680.595581 	15030.749023 	93.649529
0.191000 	13396.402344 	-1683.094727 	15079.497070 	93.953255
0.192000 	13430.936523 	-1675.455444 	15106.391602 	94.120819
0.193000 	13477.694336 	-1649.590454 	15127.285156 	94.250999
0.194000 	13547.038086 	-1594.995117 	15142.033203 	94.342888
0.195000 	13576.387695 	-1521.161987 	15097.549805 	94.065727
0.196000 	13586.086914 	-1489.611938 	15075.699219 	93.929588
0.197000 	13717.230469 	-1544.175903 	15261.406250 	95.086647
0.198000 	14011.309570 	-1626.593506 	15637.903320 	97.432419
0.199000 	14309.708008 	-1680.919678 	15990.627930 	99.630081
0.200000 	14417.418945 	-1703.190308 	16120.609375 	100.439934
0.201000 	14244.916992 	-1705.799683 	15950.716797 	99.381416
0.202000 	13897.427734 	-1698.538818 	15595.966797 	97.171135
0.203000 	13594.167969 	-1687.096680 	15281.264648 	95.210373
0.204000 	13356.861328 	-1675.010620 	15031.872070 	93.656525
0.205000 	13165.603516 	-1664.666992 	14830.270508 	92.400436
0.206000 	13269.038086 	-1656.709351 	14925.747070 	92.995308
0.207000 	13770.273438 	-1649.147461 	15419.420898 	96.071159
0.208000 	14400.154297 	-1637.722900 	16037.876953 	99.924469
0.209000 	14947.354492 	-1618.493286 	16565.847656 	103.214005
0.210000 	15325.423828 	-1593.316406 	16918.740234 	105.412712
0.211000 	15555.511719 	-1573.728638 	17129.240234 	106.724236
0.212000 	15692.380859 	-1571.146973 	17263.527344 	107.560921
0.213000 	15717.689453 	-1578.949097 	17296.638672 	107.767220
0.214000 	15575.166992 	-1577.032471 	17152.199219 	106.867287
0.215000 	15242.501953 	-1554.957031 	16797.458984 	104.657066
0.216000 	14808.253906 	-1526.230225 	16334.484375 	101.772491
0.217000 	14563.829102 	-1517.884399 	16081.713867 	100.197594
0.218000 	14746.023438 	-1534.994995 	16281.018555 	101.439369
0.219000 	15150.511719 	-1555.698730 	16706.210938 	104.088539
0.220000 	15415.943359 	-1564.640625 	16980.583984 	105.798035
0.221000 	15398.297852 	-1564.053711 	16962.351562 	105.684433
0.222000 	15129.695312 	-1562.003906 	16691.699219 	103.998123
0.223000 	14745.221680 	-1562.462646 	16307.684570 	101.605515
0.224000 	14683.076172 	-1564.663696 	16247.740234 	101.232025
0.225000 	15066.986328 	-1566.891113 	16633.876953 	103.637863
0.226000 	15280.641602 	-1568.203979 	16848.845703 	104.977234
0.227000 	15164.325195 	-1567.963867 	16732.289062 	104.251022
0.228000 	14941.881836 	-1565.221802 	16507.103516 	102.848000
0.229000 	14746.291992 	-1558.601685 	16304.893555 	101.588120
0.230000 	14630.327148 	-1547.132446 	16177.459961 	100.794144
0.231000 	14594.961914 	-1532.590088 	16127.551758 	100.483185
0.232000 	14604.450195 	-1520.915894 	16125.366211 	100.469574
0.233000 	14662.985352 	-1517.666260 	16180.651367 	100.814026
0.234000 	14855.168945 	-1522.638672 	16377.807617 	102.042412
0.235000 	15206.150391 	-1532.298462 	16738.449219 	104.289406
0.236000 	15500.623047 	-1543.810669 	17044.433594 	106.195847
0.237000 	15560.835938 	-1556.424316 	17117.259766 	106.649597
0.238000 	15474.976562 	-1570.072754 	17045.048828 	106.199684
0.239000 	15308.024414 	-1582.928345 	16890.953125 	105.239586
0.240000 	15112.372070 	-1589.839111 	16702.210938 	104.063622
0.241000 	15023.103516 	-1581.740479 	16604.843750 	103.456970
0.242000 	15025.087891 	-1547.745605 	16572.833984 	103.257530
0.243000 	15049.843750 	-1487.828003 	16537.671875 	103.038452
0.244000 	15157.497070 	-1435.645386 	16593.142578 	103.384064
0.245000 	15395.150391 	-1436.525391 	16831.675781 	104.870255
0.246000 	15709.284180 	-1477.352783 	17186.636719 	107.081848
0.247000 	15967.639648 	-1512.618286 	17480.257812 	108.911263
0.248000 	16048.478516 	-1526.496460 	17574.974609 	109.501396
0.249000 	15985.747070 	-1529.917358 	17515.664062 	109.131866
0.250000 	16028.974609 	-1536.251465 	17565.226562 	109.440666
0.251000 	16314.246094 	-1548.048340 	17862.294922 	111.291557
0.252000 	16580.660156 	-1559.550415 	18140.210938 	113.023125
0.253000 	16607.287109 	-1565.551880 	18172.839844 	113.226418
0.254000 	16403.626953 	-1564.968018 	17968.595703 	111.953865
0.255000 	16107.366211 	-1559.217529 	17666.583984 	110.072174
0.256000 	15971.735352 	-1550.024658 	17521.759766 	109.169846
0.257000 	16064.750977 	-1538.504639 	17603.255859 	109.677605
0.258000 	16107.208984 	-1525.406494 	17632.615234 	109.860535
0.259000 	15866.157227 	-1511.823120 	17377.980469 	108.274025
0.260000 	15519.800781 	-1499.380859 	17019.181641 	106.038513
0.261000 	15366.669922 	-1489.119263 	16855.789062 	105.020493
0.262000 	15403.222656 	-1480.254028 	16883.476562 	105.193001
0.263000 	15681.763672 	-1471.507690 	17153.271484 	106.873962
0.264000 	16124.969727 	-1464.264282 	17589.234375 	109.590248
0.265000 	16502.291016 	-1462.741089 	17965.031250 	111.931656
0.266000 	16726.003906 	-1469.092529 	18195.095703 	113.365082
0.267000 	16755.035156 	-1479.665039 	18234.701172 	113.611847
0.268000 	16613.359375 	-1488.388306 	18101.748047 	112.783478
0.269000 	16393.820312 	-1491.683594 	17885.503906 	111.436165
0.270000 	16152.349609 	-1489.299072 	17641.648438 	109.916809
0.271000 	15906.041016 	-1482.845459 	17388.886719 	108.341972
0.272000 	15779.797852 	-1474.294312 	17254.091797 	107.502129
0.273000 	15970.666992 	-1464.921265 	17435.587891 	108.632950
0.274000 	16472.732422 	-1454.811035 	17927.542969 	111.698090
0.275000 	17018.707031 	-1442.943359 	18461.650391 	115.025856
0.276000 	17397.921875 	-1427.850464 	18825.771484 	117.294525
0.277000 	17579.160156 	-1409.548950 	18988.708984 	118.309715
0.278000 	17594.673828 	-1392.737183 	18987.410156 	118.301620
0.279000 	17470.986328 	-1386.463013 	18857.449219 	117.491898
0.280000 	17254.853516 	-1395.046143 	18649.900391 	116.198753
0.281000 	17086.753906 	-1412.024658 	18498.779297 	115.257195
0.282000 	17122.730469 	-1428.148438 	18550.878906 	115.581802
0.283000 	17298.480469 	-1438.930542 	18737.410156 	116.743988
0.284000 	17408.955078 	-1443.882812 	18852.837891 	117.463165
0.285000 	17362.289062 	-1443.870117 	18806.160156 	117.172340
0.286000 	17196.867188 	-1440.061890 	18636.929688 	116.117943
0.287000 	16968.316406 	-1434.080322 	18402.396484 	114.656677
0.288000 	16769.640625 	-1428.691406 	18198.332031 	113.385246
0.289000 	16715.587891 	-1427.781372 	18143.369141 	113.042801
0.290000 	16769.013672 	-1434.384521 	18203.398438 	113.416809
0.291000 	16799.882812 	-1448.556519 	18248.439453 	113.697441
0.292000 	16803.515625 	-1465.918945 	18269.435547 	113.828262
0.293000 	16810.912109 	-1477.071411 	18287.984375 	113.943825
0.294000 	16780.255859 	-1469.028198 	18249.283203 	113.702698
0.295000 	16760.582031 	-1430.333984 	18190.916016 	113.339043
0.296000 	16848.974609 	-1376.247925 	18225.222656 	113.552788
0.297000 	17060.595703 	-1374.926025 	18435.521484 	114.863060
0.298000 	17292.888672 	-1453.467407 	18746.355469 	116.799721
0.299000 	17432.078125 	-1536.961182 	18969.039062 	118.187157
0.300000 	17503.962891 	-1576.450073 	19080.412109 	118.881073
0.301000 	17562.007812 	-1574.680298 	19136.687500 	119.231697
0.302000 	17509.306641 	-1542.896851 	19052.203125 	118.705315
0.303000 	17222.076172 	-1487.111938 	18709.187500 	116.568146
0.304000 	16776.443359 	-1424.912109 	18201.355469 	113.404083
0.305000 	16427.083984 	-1397.580078 	17824.664062 	111.057098
0.306000 	16358.105469 	-1421.232666 	17779.337891 	110.774689
0.307000 	16545.730469 	-1460.658569 	18006.388672 	112.189339
0.308000 	16815.292969 	-1482.417603 	18297.710938 	114.004433
0.309000 	16946.921875 	-1479.171143 	18426.093750 	114.804321
0.310000 	16887.578125 	-1456.841553 	18344.419922 	114.295448
0.311000 	16758.238281 	-1424.524292 	18182.761719 	113.288239
0.312000 	16617.345703 	-1391.563110 	18008.908203 	112.205032
0.313000 	16371.103516 	-1365.831665 	17736.935547 	110.510498
0.314000 	15911.583984 	-1352.932129 	17264.515625 	107.567078
0.315000 	15439.107422 	-1353.013306 	16792.121094 	104.623810
0.316000 	15624.716797 	-1359.728882 	16984.445312 	105.822090
0.317000 	16307.363281 	-1366.277710 	17673.640625 	110.116142
